id,y,x0,x1,x2,x3,x4,x5,x6,x7,x8,x9,x10,x11
1563,125,643.18,1585.17,1409.75,552.31,2388.12,47.3,521.23,2388.13,8.4808,393,38.9,23.3468
1564,125,642.92,1585.97,1410.81,552.74,2388.11,47.62,521.82,2388.13,8.4209,392,38.9,23.2926
1565,125,642.74,1591.11,1403.29,552.79,2388.11,47.51,521.52,2388.12,8.4497,393,38.88,23.1812
1566,125,642.76,1592.22,1406.11,552.13,2388.14,47.68,521.25,2388.12,8.4405,393,38.86,23.2371
1567,125,643.13,1596.11,1409.34,553.61,2388.13,47.53,521.5,2388.15,8.4029,392,38.88,23.2975
1568,125,642.55,1596.3,1418.06,552.32,2388.13,47.55,521.07,2388.14,8.4505,394,38.86,23.2799
1569,125,642.86,1586.88,1404.52,553.54,2388.11,47.28,521.14,2388.13,8.4438,392,38.71,23.3545
1570,125,642.75,1589.06,1407.11,552.97,2388.17,47.38,521.9,2388.21,8.4281,394,38.71,23.2232
1571,125,643.01,1594.26,1413.87,552.61,2388.1,47.53,521.17,2388.15,8.4758,392,38.94,23.2721
1572,125,642.57,1583.85,1406.7,553.56,2388.12,47.59,521.1,2388.14,8.4599,395,38.76,23.2683
1573,125,642.3,1589.55,1419.87,554.04,2388.2,47.69,521.0,2388.14,8.4549,392,38.81,23.2842
1574,125,643.02,1587.92,1406.39,553.47,2388.1,47.65,521.18,2388.11,8.4522,394,39.04,23.2671
1575,125,642.46,1588.36,1407.31,553.57,2388.1,47.35,521.36,2388.1,8.4268,395,38.67,23.357
1576,125,642.44,1588.9,1413.77,553.13,2388.14,47.53,521.1,2388.15,8.4481,394,38.82,23.3671
1577,125,642.61,1596.78,1411.97,553.06,2388.15,47.62,521.48,2388.16,8.4934,390,38.6,23.3259
1578,125,641.82,1592.93,1410.4,553.15,2388.06,47.57,522.08,2388.17,8.4631,392,38.78,23.2899
1579,125,642.61,1592.06,1403.1,553.48,2388.16,47.62,521.25,2388.12,8.4208,392,38.82,23.2522
1580,125,642.2,1593.38,1409.63,552.95,2388.17,47.71,521.19,2388.1,8.4579,393,38.98,23.2242
1581,125,642.32,1590.23,1406.79,553.75,2388.1,47.61,521.0,2388.07,8.4433,392,38.88,23.2057
1582,125,643.33,1590.41,1405.38,553.09,2388.13,47.41,521.75,2388.11,8.4265,395,38.89,23.2556
1583,125,642.74,1586.57,1400.16,553.73,2388.17,47.51,520.86,2388.14,8.4506,392,38.84,23.3172
1584,125,642.68,1589.24,1412.59,553.2,2388.17,47.6,521.51,2388.11,8.4327,394,38.91,23.2675
1585,125,643.08,1585.98,1415.98,553.14,2388.18,47.54,521.28,2388.08,8.4517,392,38.87,23.1853
1586,125,642.92,1584.01,1406.58,552.85,2388.14,47.53,521.63,2388.11,8.4348,391,38.9,23.3129
1587,125,642.85,1585.05,1410.56,553.29,2388.13,47.73,521.75,2388.09,8.4432,393,38.78,23.2746
1588,124,642.23,1589.95,1405.69,553.07,2388.07,47.38,521.88,2388.16,8.4056,394,38.88,23.2902
1589,123,642.83,1590.91,1413.37,553.4,2388.17,47.57,520.65,2388.2,8.4211,393,38.69,23.2324
1590,122,642.14,1584.76,1411.85,553.68,2388.1,47.43,520.94,2388.1,8.4334,393,38.79,23.2601
1591,121,642.89,1592.03,1407.7,553.01,2388.16,47.57,521.34,2388.15,8.4479,392,38.92,23.3099
1592,120,643.08,1588.55,1400.07,552.45,2388.08,47.59,521.26,2388.14,8.4222,393,38.81,23.3215
1593,119,642.63,1584.36,1410.45,553.64,2388.09,47.59,521.59,2388.12,8.4893,393,38.8,23.3203
1594,118,642.87,1594.16,1413.85,552.92,2388.13,47.42,521.58,2388.17,8.4686,394,38.73,23.2709
1595,117,642.11,1588.7,1416.52,552.9,2388.14,47.59,521.03,2388.14,8.4675,394,38.92,23.3081
1596,116,642.38,1594.25,1406.27,552.76,2388.14,47.67,520.91,2388.14,8.4364,395,38.85,23.2625
1597,115,642.79,1591.81,1411.73,553.56,2388.11,47.64,521.09,2388.1,8.471,393,38.67,23.2182
1598,114,643.05,1588.74,1414.51,553.27,2388.08,47.5,521.37,2388.11,8.4597,393,38.71,23.2801
1599,113,642.86,1593.86,1409.9,553.36,2388.14,47.65,521.28,2388.11,8.4143,394,38.83,23.2904
1600,112,642.91,1592.65,1403.91,552.94,2388.11,47.29,521.18,2388.15,8.4479,393,38.85,23.2445
1601,111,642.67,1594.9,1409.08,553.02,2388.16,47.55,522.13,2388.13,8.4429,394,38.82,23.2915
1602,110,642.33,1587.05,1409.73,553.2,2388.14,47.59,521.64,2388.16,8.414,394,38.91,23.2884
1603,109,643.64,1586.4,1415.03,552.39,2388.15,47.58,521.33,2388.17,8.4514,392,38.82,23.2971
1604,108,642.45,1596.61,1413.96,553.39,2388.15,47.57,521.01,2388.11,8.4001,393,38.82,23.2418
1605,107,642.12,1589.67,1404.92,553.1,2388.1,47.53,520.99,2388.13,8.4519,393,38.8,23.2719
1606,106,642.83,1594.48,1412.23,553.81,2388.13,47.47,521.38,2388.17,8.4808,393,38.81,23.2559
1607,105,642.7,1594.39,1406.87,553.18,2388.1,47.38,520.97,2388.07,8.3967,391,38.81,23.2896
1608,104,642.66,1582.06,1407.98,553.09,2388.11,47.58,521.52,2388.2,8.4308,393,38.76,23.274
1609,103,643.19,1597.18,1409.66,552.66,2388.14,47.49,521.09,2388.14,8.4617,395,38.83,23.2846
1610,102,643.16,1592.35,1410.66,553.5,2388.15,47.62,521.2,2388.07,8.4126,393,38.66,23.3099
1611,101,642.47,1597.28,1408.45,553.69,2388.16,47.81,521.69,2388.11,8.4282,394,38.78,23.2095
1612,100,642.46,1596.48,1418.47,553.05,2388.17,47.58,520.84,2388.2,8.4453,393,38.71,23.2612
1613,99,642.3,1596.71,1408.48,552.96,2388.18,47.66,521.17,2388.2,8.4715,395,38.86,23.2719
1614,98,642.91,1591.23,1411.15,553.42,2388.19,47.58,521.03,2388.15,8.4327,394,38.87,23.2967
1615,97,642.44,1591.28,1408.73,553.37,2388.12,47.54,521.1,2388.2,8.4654,392,38.77,23.2592
1616,96,642.8,1586.86,1408.64,553.38,2388.14,47.79,521.49,2388.1,8.4623,394,38.78,23.2773
1617,95,642.55,1587.69,1409.0,552.31,2388.14,47.61,521.12,2388.13,8.4465,393,38.76,23.3119
1618,94,642.79,1588.22,1412.93,553.19,2388.12,47.59,522.12,2388.15,8.4121,394,38.92,23.367
1619,93,642.51,1587.86,1405.68,552.52,2388.08,47.45,520.87,2388.18,8.4585,392,38.71,23.2328
1620,92,642.54,1587.61,1415.49,553.74,2388.12,47.66,520.79,2388.16,8.5176,393,38.62,23.2355
1621,91,642.73,1596.47,1403.96,552.83,2388.13,47.69,521.76,2388.14,8.4526,393,38.9,23.3387
1622,90,642.89,1592.58,1413.38,552.45,2388.15,47.7,521.52,2388.11,8.4372,393,38.75,23.2112
1623,89,642.36,1581.06,1410.45,553.78,2388.13,47.51,521.35,2388.13,8.4707,393,38.77,23.2598
1624,88,642.93,1588.92,1406.65,552.12,2388.11,47.55,520.66,2388.17,8.4369,393,38.74,23.1837
1625,87,642.38,1593.42,1411.87,552.76,2388.11,47.69,520.88,2388.16,8.4405,394,38.9,23.3115
1626,86,643.04,1587.91,1403.83,552.8,2388.15,47.82,521.23,2388.12,8.4649,394,38.76,23.1794
1627,85,642.33,1592.63,1411.72,553.15,2388.17,47.63,521.07,2388.18,8.4577,393,38.75,23.3226
1628,84,642.65,1589.96,1410.23,553.33,2388.18,47.79,520.67,2388.13,8.4809,393,38.84,23.2782
1629,83,643.01,1598.92,1416.24,553.62,2388.18,47.79,521.34,2388.14,8.4402,394,38.8,23.3558
1630,82,642.59,1594.01,1409.46,554.02,2388.15,47.55,520.95,2388.13,8.4435,394,38.88,23.2831
1631,81,643.06,1590.31,1411.5,553.19,2388.19,47.57,520.99,2388.14,8.4424,396,38.79,23.2364
1632,80,643.09,1598.38,1409.85,553.02,2388.14,47.59,520.88,2388.12,8.4531,394,38.68,23.2438
1633,79,642.27,1588.04,1411.2,553.02,2388.16,47.76,521.64,2388.12,8.4414,393,38.83,23.2851
1634,78,642.79,1590.22,1412.92,553.02,2388.17,47.55,521.07,2388.15,8.4352,395,38.8,23.255
1635,77,642.76,1589.54,1412.9,552.98,2388.13,47.7,521.71,2388.2,8.4614,393,38.81,23.3273
1636,76,643.27,1589.11,1406.93,553.28,2388.17,47.55,520.98,2388.15,8.4337,394,38.79,23.2157
1637,75,642.42,1588.17,1413.75,553.24,2388.14,47.46,520.76,2388.14,8.4466,392,38.77,23.1397
1638,74,642.69,1587.95,1411.06,553.56,2388.14,47.57,521.17,2388.18,8.4635,394,38.71,23.2871
1639,73,642.83,1594.18,1415.54,552.76,2388.17,47.68,520.77,2388.14,8.4474,394,38.82,23.2749
1640,72,643.06,1593.86,1412.77,553.07,2388.16,47.63,520.97,2388.15,8.4951,393,38.78,23.2729
1641,71,643.18,1590.44,1408.65,552.55,2388.19,47.64,520.42,2388.2,8.4716,392,38.91,23.2468
1642,70,643.09,1586.49,1421.86,552.97,2388.16,47.6,520.82,2388.16,8.4046,394,38.69,23.1655
1643,69,642.44,1598.81,1418.07,553.13,2388.18,47.59,520.64,2388.12,8.4418,394,38.75,23.1679
1644,68,643.11,1587.82,1406.94,552.63,2388.19,47.77,521.23,2388.18,8.4673,395,38.67,23.3798
1645,67,642.79,1588.27,1406.93,553.02,2388.17,47.66,521.38,2388.23,8.4569,394,38.88,23.1633
1646,66,642.91,1600.62,1416.91,553.39,2388.2,47.68,520.84,2388.15,8.4446,394,38.68,23.3456
1647,65,643.53,1586.9,1419.03,553.03,2388.18,47.71,521.2,2388.17,8.4391,394,38.51,23.2252
1648,64,643.57,1595.92,1411.11,552.65,2388.21,47.73,521.32,2388.18,8.5072,395,38.8,23.2706
1649,63,643.13,1594.3,1419.41,553.26,2388.17,47.69,521.01,2388.18,8.4485,394,38.7,23.1939
1650,62,643.0,1592.27,1413.99,552.58,2388.15,47.78,520.49,2388.15,8.4636,395,38.85,23.2395
1651,61,642.89,1588.92,1414.77,552.99,2388.18,47.53,521.37,2388.19,8.4684,393,38.75,23.2629
1652,60,643.04,1597.06,1419.66,553.63,2388.21,47.76,520.86,2388.25,8.4657,395,38.75,23.175
1653,59,642.85,1597.12,1418.09,553.31,2388.14,47.61,521.1,2388.15,8.4363,392,38.81,23.1856
1654,58,643.22,1587.73,1406.32,553.52,2388.21,47.68,520.76,2388.15,8.4885,393,38.64,23.2741
1655,57,642.64,1600.04,1412.99,553.25,2388.16,47.59,521.29,2388.16,8.4484,394,38.68,23.2533
1656,56,642.83,1598.04,1413.58,553.19,2388.2,47.68,520.82,2388.2,8.4551,394,38.72,23.2282
1657,55,643.23,1593.41,1414.15,552.31,2388.21,47.74,520.93,2388.15,8.4869,395,38.72,23.3197
1658,54,642.87,1597.95,1410.75,553.64,2388.13,47.69,521.23,2388.19,8.4842,393,38.81,23.1988
1659,53,643.24,1589.77,1414.96,552.79,2388.17,47.89,521.04,2388.2,8.4235,392,38.85,23.2346
1660,52,642.84,1591.64,1414.43,552.63,2388.17,47.59,520.74,2388.17,8.4813,393,38.71,23.2744
1661,51,642.14,1596.36,1416.42,552.48,2388.16,47.82,520.74,2388.16,8.4653,394,38.73,23.1774
1662,50,642.33,1595.63,1418.78,552.73,2388.16,47.72,520.59,2388.21,8.4532,394,38.75,23.1026
1663,49,643.11,1591.38,1421.21,552.64,2388.16,47.75,520.9,2388.16,8.4646,395,38.61,23.2687
1664,48,643.14,1582.62,1413.48,552.27,2388.19,47.73,520.79,2388.19,8.4561,394,38.85,23.2557
1665,47,642.76,1593.92,1411.03,553.11,2388.21,47.78,521.19,2388.21,8.4837,395,38.76,23.2683
1666,46,642.77,1590.73,1418.79,552.61,2388.21,47.78,520.55,2388.14,8.4563,393,38.87,23.1385
1667,45,642.64,1592.44,1411.94,552.67,2388.22,47.88,521.02,2388.14,8.4851,393,38.7,23.1946
1668,44,642.74,1587.49,1412.29,551.51,2388.15,47.95,520.45,2388.23,8.4651,394,38.67,23.2594
1669,43,642.93,1598.31,1420.11,552.75,2388.18,47.62,520.88,2388.2,8.4555,395,38.8,23.2435
1670,42,642.82,1590.36,1422.19,552.51,2388.2,47.79,520.9,2388.16,8.4884,394,38.74,23.326
1671,41,642.9,1596.7,1412.1,553.13,2388.26,47.71,520.22,2388.22,8.4915,394,38.85,23.2791
1672,40,643.46,1591.04,1413.93,552.65,2388.19,47.76,520.72,2388.15,8.4961,393,38.54,23.1857
1673,39,643.11,1592.76,1416.05,552.42,2388.19,47.75,520.7,2388.2,8.4449,394,38.53,23.1757
1674,38,642.9,1603.1,1415.73,552.87,2388.2,47.57,520.56,2388.16,8.4972,395,38.64,23.1456
1675,37,643.23,1598.37,1410.46,552.1,2388.15,47.87,520.39,2388.21,8.4561,394,38.76,23.0927
1676,36,642.96,1594.91,1415.05,552.75,2388.21,47.76,520.3,2388.16,8.4579,393,38.58,23.298
1677,35,642.73,1598.5,1415.49,552.46,2388.16,47.8,521.21,2388.19,8.4614,395,38.66,23.2599
1678,34,643.29,1593.72,1419.78,552.68,2388.17,47.82,520.71,2388.17,8.4766,395,38.69,23.135
1679,33,643.14,1587.02,1419.89,553.04,2388.21,47.9,520.5,2388.18,8.4805,392,38.45,23.1152
1680,32,642.94,1585.36,1411.35,552.14,2388.24,47.86,520.68,2388.2,8.4706,394,38.53,23.2868
1681,31,643.38,1594.55,1416.89,552.61,2388.25,47.85,520.71,2388.21,8.4645,395,38.68,23.2805
1682,30,643.44,1600.04,1417.09,552.39,2388.18,47.88,520.37,2388.21,8.4552,395,38.7,23.1677
1683,29,642.98,1594.55,1417.41,551.98,2388.18,47.95,520.03,2388.23,8.4754,394,38.56,23.2132
1684,28,643.37,1593.25,1422.75,551.66,2388.23,48.04,520.64,2388.19,8.499,394,38.77,23.0424
1685,27,643.81,1597.23,1419.95,552.67,2388.21,47.9,520.15,2388.22,8.5019,394,38.74,23.1333
1686,26,643.09,1595.92,1419.7,552.14,2388.26,48.0,520.3,2388.22,8.4902,396,38.39,23.1939
1687,25,643.84,1593.45,1424.0,552.24,2388.2,47.99,520.68,2388.16,8.4807,396,38.58,23.1815
1688,24,643.15,1599.98,1420.01,552.09,2388.26,47.9,520.26,2388.19,8.5094,395,38.51,23.1537
1689,23,643.53,1595.04,1416.81,551.79,2388.19,48.0,520.69,2388.2,8.4798,395,38.63,23.2215
1690,22,643.34,1598.47,1427.67,552.07,2388.22,47.82,520.42,2388.23,8.5034,394,38.66,23.1302
1691,21,642.87,1593.87,1418.54,551.82,2388.27,47.92,520.58,2388.24,8.5285,396,38.49,23.1441
1692,20,642.95,1600.15,1414.35,551.52,2388.22,47.9,520.36,2388.27,8.5072,394,38.62,23.0666
1693,19,643.48,1593.32,1425.47,552.09,2388.25,48.09,520.13,2388.24,8.5098,395,38.58,23.0893
1694,18,643.55,1596.48,1419.07,551.32,2388.23,47.84,520.05,2388.24,8.4999,392,38.79,23.1495
1695,17,643.8,1597.34,1416.24,551.83,2388.21,48.08,520.16,2388.28,8.5008,395,38.42,23.176
1696,16,644.02,1597.2,1425.3,552.06,2388.27,48.0,520.47,2388.26,8.4511,395,38.54,23.0978
1697,15,643.22,1596.04,1422.09,551.91,2388.28,47.89,519.78,2388.18,8.4724,395,38.55,23.1053
1698,14,643.55,1601.77,1418.93,551.63,2388.24,47.98,519.88,2388.22,8.5125,396,38.68,23.0878
1699,13,643.38,1598.04,1424.6,551.17,2388.25,48.14,520.01,2388.28,8.5639,396,38.47,23.1214
1700,12,643.68,1597.92,1429.13,551.7,2388.2,47.98,519.97,2388.18,8.5054,396,38.43,23.1086
1701,11,642.78,1597.03,1424.37,551.96,2388.23,48.13,520.39,2388.27,8.5068,397,38.4,23.1321
1702,10,643.53,1593.54,1419.01,551.5,2388.23,48.07,520.25,2388.26,8.4966,395,38.61,23.0681
1703,9,643.46,1595.97,1422.62,551.19,2388.21,48.01,519.45,2388.18,8.5023,395,38.58,23.0706
1704,8,643.23,1601.14,1427.03,551.86,2388.29,48.17,519.92,2388.29,8.5348,395,38.48,23.0716
1705,7,643.44,1610.35,1426.08,551.38,2388.24,48.13,519.85,2388.26,8.522,395,38.29,23.0465
1706,6,643.95,1603.96,1422.82,551.29,2388.3,48.02,519.92,2388.29,8.5229,394,38.47,23.1225
1707,5,643.6,1599.71,1427.14,551.32,2388.32,47.98,519.47,2388.3,8.4846,395,38.46,23.1502
1708,4,643.49,1605.73,1421.14,551.4,2388.31,48.23,520.01,2388.23,8.5184,396,38.51,22.983
1709,3,643.32,1601.4,1429.5,551.1,2388.27,48.37,519.62,2388.27,8.4701,396,38.42,23.1565
1710,2,643.43,1605.59,1421.3,551.73,2388.31,48.13,519.87,2388.29,8.4914,395,38.59,23.0631
1711,1,643.87,1605.12,1428.29,550.49,2388.29,48.09,519.31,2388.28,8.518,396,38.3,23.0808
1712,0,643.87,1602.84,1432.31,551.08,2388.27,48.24,519.57,2388.26,8.5509,394,38.24,23.051
4880,125,642.85,1586.83,1403.72,553.81,2388.1,47.51,521.04,2388.15,8.432,392,38.98,23.4472
4881,125,642.01,1585.04,1408.44,552.88,2388.11,47.37,521.78,2388.11,8.4518,394,38.8,23.2932
4882,125,642.35,1584.13,1405.1,553.73,2388.13,47.43,521.45,2388.06,8.4354,394,38.74,23.251
4883,125,642.55,1592.42,1405.92,553.79,2388.13,47.5,521.53,2388.11,8.4187,392,38.98,23.3807
4884,125,642.38,1588.13,1399.72,553.64,2388.07,47.29,520.93,2388.05,8.4501,391,38.8,23.297
4885,125,642.74,1590.35,1413.87,554.36,2388.1,47.45,521.91,2388.12,8.4588,394,38.96,23.3451
4886,125,642.34,1589.76,1410.2,553.94,2388.1,47.42,521.36,2388.17,8.4436,392,38.66,23.372
4887,125,642.24,1590.04,1410.09,554.48,2388.1,47.63,521.68,2388.13,8.4387,393,38.62,23.3443
4888,125,642.87,1591.58,1403.9,553.32,2388.14,47.46,521.67,2388.13,8.4279,394,38.78,23.3189
4889,125,642.33,1588.11,1405.93,553.31,2388.1,47.53,521.59,2388.13,8.4246,392,38.94,23.3077
4890,125,642.11,1590.85,1406.76,553.19,2388.15,47.36,521.51,2388.08,8.4431,391,38.74,23.2851
4891,125,642.13,1588.56,1406.97,553.39,2388.11,47.57,521.26,2388.15,8.3837,392,38.62,23.2574
4892,125,642.63,1583.09,1401.16,553.9,2388.12,47.51,521.53,2388.1,8.4074,393,38.91,23.3313
4893,125,643.03,1583.85,1407.83,553.56,2388.12,47.51,521.06,2388.08,8.4071,393,38.79,23.4092
4894,125,642.82,1591.45,1407.76,554.06,2388.11,47.25,521.71,2388.11,8.4628,392,38.83,23.3627
4895,125,643.11,1598.66,1401.54,553.53,2388.07,47.44,521.43,2388.08,8.4017,392,39.07,23.3018
4896,125,642.85,1581.71,1411.93,553.51,2388.11,47.46,521.46,2388.1,8.4191,392,38.98,23.3514
4897,125,642.46,1584.37,1406.8,553.97,2388.12,47.34,521.29,2388.12,8.4192,392,38.85,23.3673
4898,125,642.43,1592.25,1402.92,553.73,2388.09,47.47,521.17,2388.07,8.432,393,38.9,23.3796
4899,125,642.11,1586.74,1409.28,553.24,2388.14,47.49,522.03,2388.12,8.4284,393,38.73,23.3354
4900,125,642.83,1584.95,1402.98,553.15,2388.11,47.43,521.55,2388.09,8.4326,394,38.86,23.4104
4901,125,642.52,1582.69,1411.48,553.17,2388.06,47.32,521.24,2388.13,8.4124,393,39.0,23.3353
4902,125,642.57,1575.77,1405.23,553.09,2388.12,47.49,521.38,2388.08,8.4539,392,38.99,23.3806
4903,125,642.12,1589.55,1408.37,553.21,2388.11,47.28,521.38,2388.06,8.4316,393,38.84,23.3507
4904,125,642.69,1588.03,1396.61,553.82,2388.14,47.36,522.05,2388.07,8.4248,395,38.78,23.2456
4905,125,642.43,1586.86,1404.38,553.95,2388.06,47.49,521.23,2388.13,8.4308,393,39.11,23.3263
4906,125,641.7,1593.58,1407.33,553.94,2388.04,47.47,521.55,2388.11,8.4521,392,39.05,23.3549
4907,125,642.4,1592.49,1412.61,553.64,2388.1,47.49,521.3,2388.13,8.4279,392,38.97,23.3029
4908,125,642.2,1583.91,1413.5,553.41,2388.09,47.57,521.98,2388.1,8.4331,393,38.67,23.2909
4909,125,641.61,1589.98,1405.03,552.61,2388.15,47.33,522.3,2388.14,8.4311,394,38.97,23.2102
4910,125,642.66,1593.21,1402.68,552.93,2388.13,47.32,521.87,2388.12,8.4429,393,39.0,23.2772
4911,125,642.54,1585.93,1410.09,553.52,2388.08,47.67,521.86,2388.15,8.4461,395,38.86,23.3358
4912,125,642.54,1590.19,1402.06,553.37,2388.15,47.5,521.37,2388.14,8.4223,393,38.74,23.2652
4913,125,642.0,1588.66,1403.4,553.51,2388.11,47.54,521.5,2388.16,8.4272,394,38.81,23.342
4914,125,642.39,1585.77,1407.98,553.77,2388.13,47.34,521.83,2388.11,8.4568,391,39.07,23.3539
4915,125,642.11,1592.19,1410.44,553.71,2388.13,47.44,521.77,2388.09,8.4014,393,38.76,23.2998
4916,125,642.79,1582.14,1403.02,553.12,2388.06,47.62,521.65,2388.1,8.4354,391,38.73,23.3496
4917,125,642.72,1583.82,1403.63,553.62,2388.09,47.31,521.21,2388.13,8.4214,393,38.88,23.2142
4918,125,642.79,1581.71,1404.19,554.0,2388.14,47.6,521.21,2388.09,8.4683,391,38.88,23.2764
4919,125,642.58,1594.83,1409.69,552.99,2388.1,47.65,521.72,2388.13,8.4018,394,39.01,23.2179
4920,125,642.78,1589.15,1409.06,554.41,2388.09,47.43,521.97,2388.08,8.4488,391,38.99,23.2518
4921,125,642.47,1584.89,1405.45,553.9,2388.08,47.55,521.25,2388.11,8.3865,392,38.99,23.3164
4922,125,642.46,1588.32,1406.67,553.56,2388.05,47.52,521.79,2388.12,8.4548,392,38.75,23.2465
4923,125,642.97,1587.86,1403.71,553.52,2388.13,47.66,521.29,2388.06,8.4499,394,38.95,23.3557
4924,125,642.81,1584.99,1408.14,553.23,2388.12,47.48,521.72,2388.13,8.4262,394,38.83,23.3319
4925,125,642.4,1585.8,1407.41,553.74,2388.07,47.54,521.77,2388.08,8.4112,392,38.61,23.2421
4926,125,642.61,1594.45,1409.17,553.28,2388.09,47.7,521.86,2388.2,8.4446,393,38.86,23.3355
4927,125,642.77,1588.26,1407.09,553.37,2388.1,47.31,521.02,2388.14,8.4154,393,38.87,23.4121
4928,125,643.41,1582.22,1403.5,552.94,2388.09,47.4,521.1,2388.08,8.4406,390,39.05,23.3296
4929,125,642.17,1587.44,1411.53,553.51,2388.07,47.54,521.69,2388.12,8.4283,393,38.74,23.4
4930,125,643.16,1587.93,1403.06,553.95,2388.13,47.71,521.34,2388.13,8.4453,393,38.95,23.4772
4931,125,643.06,1593.56,1403.64,553.09,2388.1,47.55,521.24,2388.12,8.4403,395,38.95,23.3489
4932,125,642.35,1595.0,1406.37,553.66,2388.09,47.49,521.56,2388.14,8.4131,392,38.76,23.4037
4933,125,642.74,1589.96,1406.93,552.99,2388.13,47.4,521.37,2388.14,8.4064,394,38.73,23.3034
4934,125,642.59,1586.98,1407.07,553.5,2388.1,47.6,521.71,2388.11,8.4381,392,38.89,23.3443
4935,125,642.15,1585.88,1400.44,553.57,2388.11,47.45,521.71,2388.13,8.4593,392,38.84,23.2919
4936,125,642.82,1586.15,1409.8,553.39,2388.1,47.38,521.98,2388.09,8.4234,391,38.65,23.4326
4937,125,642.39,1586.35,1402.78,553.75,2388.08,47.44,521.66,2388.07,8.4444,393,38.88,23.3129
4938,125,642.48,1590.46,1408.88,554.07,2388.09,47.63,521.42,2388.07,8.4446,393,38.87,23.295
4939,125,642.5,1594.74,1405.12,553.48,2388.11,47.61,521.66,2388.12,8.4454,393,38.78,23.3277
4940,125,642.2,1597.99,1407.45,553.67,2388.1,47.45,521.17,2388.13,8.4341,393,38.82,23.3923
4941,125,642.79,1594.7,1404.55,553.54,2388.09,47.47,521.65,2388.12,8.412,394,38.93,23.2058
4942,125,642.24,1592.3,1402.84,554.28,2388.09,47.49,521.43,2388.09,8.4107,393,38.93,23.3093
4943,125,642.43,1594.54,1404.38,553.27,2388.14,47.68,521.54,2388.15,8.4144,394,38.91,23.3018
4944,125,642.84,1590.82,1414.85,553.62,2388.06,47.59,521.53,2388.1,8.4473,392,38.75,23.2961
4945,125,642.92,1589.6,1408.82,553.24,2388.13,47.32,520.81,2388.17,8.4572,394,38.65,23.2662
4946,125,642.9,1590.45,1405.76,552.87,2388.09,47.48,521.43,2388.06,8.4592,392,38.88,23.3239
4947,125,642.66,1597.93,1412.88,553.29,2388.15,47.55,521.06,2388.03,8.4239,392,38.79,23.3213
