id,y,x0,x1,x2,x3,x4,x5,x6,x7,x8,x9,x10,x11
1563,125,643.18,1585.17,1409.75,552.31,2388.12,47.3,521.23,2388.13,8.4808,393,38.9,23.3468
1564,125,642.92,1585.97,1410.81,552.74,2388.11,47.62,521.82,2388.13,8.4209,392,38.9,23.2926
1565,125,642.74,1591.11,1403.29,552.79,2388.11,47.51,521.52,2388.12,8.4497,393,38.88,23.1812
1566,125,642.76,1592.22,1406.11,552.13,2388.14,47.68,521.25,2388.12,8.4405,393,38.86,23.2371
1567,125,643.13,1596.11,1409.34,553.61,2388.13,47.53,521.5,2388.15,8.4029,392,38.88,23.2975
1568,125,642.55,1596.3,1418.06,552.32,2388.13,47.55,521.07,2388.14,8.4505,394,38.86,23.2799
1569,125,642.86,1586.88,1404.52,553.54,2388.11,47.28,521.14,2388.13,8.4438,392,38.71,23.3545
1570,125,642.75,1589.06,1407.11,552.97,2388.17,47.38,521.9,2388.21,8.4281,394,38.71,23.2232
1571,125,643.01,1594.26,1413.87,552.61,2388.1,47.53,521.17,2388.15,8.4758,392,38.94,23.2721
1572,125,642.57,1583.85,1406.7,553.56,2388.12,47.59,521.1,2388.14,8.4599,395,38.76,23.2683
1573,125,642.3,1589.55,1419.87,554.04,2388.2,47.69,521.0,2388.14,8.4549,392,38.81,23.2842
1574,125,643.02,1587.92,1406.39,553.47,2388.1,47.65,521.18,2388.11,8.4522,394,39.04,23.2671
1575,125,642.46,1588.36,1407.31,553.57,2388.1,47.35,521.36,2388.1,8.4268,395,38.67,23.357
1576,125,642.44,1588.9,1413.77,553.13,2388.14,47.53,521.1,2388.15,8.4481,394,38.82,23.3671
1577,125,642.61,1596.78,1411.97,553.06,2388.15,47.62,521.48,2388.16,8.4934,390,38.6,23.3259
1578,125,641.82,1592.93,1410.4,553.15,2388.06,47.57,522.08,2388.17,8.4631,392,38.78,23.2899
1579,125,642.61,1592.06,1403.1,553.48,2388.16,47.62,521.25,2388.12,8.4208,392,38.82,23.2522
1580,125,642.2,1593.38,1409.63,552.95,2388.17,47.71,521.19,2388.1,8.4579,393,38.98,23.2242
1581,125,642.32,1590.23,1406.79,553.75,2388.1,47.61,521.0,2388.07,8.4433,392,38.88,23.2057
1582,125,643.33,1590.41,1405.38,553.09,2388.13,47.41,521.75,2388.11,8.4265,395,38.89,23.2556
1583,125,642.74,1586.57,1400.16,553.73,2388.17,47.51,520.86,2388.14,8.4506,392,38.84,23.3172
1584,125,642.68,1589.24,1412.59,553.2,2388.17,47.6,521.51,2388.11,8.4327,394,38.91,23.2675
1585,125,643.08,1585.98,1415.98,553.14,2388.18,47.54,521.28,2388.08,8.4517,392,38.87,23.1853
1586,125,642.92,1584.01,1406.58,552.85,2388.14,47.53,521.63,2388.11,8.4348,391,38.9,23.3129
1587,125,642.85,1585.05,1410.56,553.29,2388.13,47.73,521.75,2388.09,8.4432,393,38.78,23.2746
1588,124,642.23,1589.95,1405.69,553.07,2388.07,47.38,521.88,2388.16,8.4056,394,38.88,23.2902
1589,123,642.83,1590.91,1413.37,553.4,2388.17,47.57,520.65,2388.2,8.4211,393,38.69,23.2324
1590,122,642.14,1584.76,1411.85,553.68,2388.1,47.43,520.94,2388.1,8.4334,393,38.79,23.2601
1591,121,642.89,1592.03,1407.7,553.01,2388.16,47.57,521.34,2388.15,8.4479,392,38.92,23.3099
1592,120,643.08,1588.55,1400.07,552.45,2388.08,47.59,521.26,2388.14,8.4222,393,38.81,23.3215
1593,119,642.63,1584.36,1410.45,553.64,2388.09,47.59,521.59,2388.12,8.4893,393,38.8,23.3203
1594,118,642.87,1594.16,1413.85,552.92,2388.13,47.42,521.58,2388.17,8.4686,394,38.73,23.2709
1595,117,642.11,1588.7,1416.52,552.9,2388.14,47.59,521.03,2388.14,8.4675,394,38.92,23.3081
1596,116,642.38,1594.25,1406.27,552.76,2388.14,47.67,520.91,2388.14,8.4364,395,38.85,23.2625
1597,115,642.79,1591.81,1411.73,553.56,2388.11,47.64,521.09,2388.1,8.471,393,38.67,23.2182
1598,114,643.05,1588.74,1414.51,553.27,2388.08,47.5,521.37,2388.11,8.4597,393,38.71,23.2801
1599,113,642.86,1593.86,1409.9,553.36,2388.14,47.65,521.28,2388.11,8.4143,394,38.83,23.2904
1600,112,642.91,1592.65,1403.91,552.94,2388.11,47.29,521.18,2388.15,8.4479,393,38.85,23.2445
1601,111,642.67,1594.9,1409.08,553.02,2388.16,47.55,522.13,2388.13,8.4429,394,38.82,23.2915
1602,110,642.33,1587.05,1409.73,553.2,2388.14,47.59,521.64,2388.16,8.414,394,38.91,23.2884
1603,109,643.64,1586.4,1415.03,552.39,2388.15,47.58,521.33,2388.17,8.4514,392,38.82,23.2971
1604,108,642.45,1596.61,1413.96,553.39,2388.15,47.57,521.01,2388.11,8.4001,393,38.82,23.2418
1605,107,642.12,1589.67,1404.92,553.1,2388.1,47.53,520.99,2388.13,8.4519,393,38.8,23.2719
1606,106,642.83,1594.48,1412.23,553.81,2388.13,47.47,521.38,2388.17,8.4808,393,38.81,23.2559
1607,105,642.7,1594.39,1406.87,553.18,2388.1,47.38,520.97,2388.07,8.3967,391,38.81,23.2896
1608,104,642.66,1582.06,1407.98,553.09,2388.11,47.58,521.52,2388.2,8.4308,393,38.76,23.274
1609,103,643.19,1597.18,1409.66,552.66,2388.14,47.49,521.09,2388.14,8.4617,395,38.83,23.2846
1610,102,643.16,1592.35,1410.66,553.5,2388.15,47.62,521.2,2388.07,8.4126,393,38.66,23.3099
1611,101,642.47,1597.28,1408.45,553.69,2388.16,47.81,521.69,2388.11,8.4282,394,38.78,23.2095
1612,100,642.46,1596.48,1418.47,553.05,2388.17,47.58,520.84,2388.2,8.4453,393,38.71,23.2612
1613,99,642.3,1596.71,1408.48,552.96,2388.18,47.66,521.17,2388.2,8.4715,395,38.86,23.2719
1614,98,642.91,1591.23,1411.15,553.42,2388.19,47.58,521.03,2388.15,8.4327,394,38.87,23.2967
1615,97,642.44,1591.28,1408.73,553.37,2388.12,47.54,521.1,2388.2,8.4654,392,38.77,23.2592
1616,96,642.8,1586.86,1408.64,553.38,2388.14,47.79,521.49,2388.1,8.4623,394,38.78,23.2773
1617,95,642.55,1587.69,1409.0,552.31,2388.14,47.61,521.12,2388.13,8.4465,393,38.76,23.3119
1618,94,642.79,1588.22,1412.93,553.19,2388.12,47.59,522.12,2388.15,8.4121,394,38.92,23.367
1619,93,642.51,1587.86,1405.68,552.52,2388.08,47.45,520.87,2388.18,8.4585,392,38.71,23.2328
1620,92,642.54,1587.61,1415.49,553.74,2388.12,47.66,520.79,2388.16,8.5176,393,38.62,23.2355
1621,91,642.73,1596.47,1403.96,552.83,2388.13,47.69,521.76,2388.14,8.4526,393,38.9,23.3387
1622,90,642.89,1592.58,1413.38,552.45,2388.15,47.7,521.52,2388.11,8.4372,393,38.75,23.2112
1623,89,642.36,1581.06,1410.45,553.78,2388.13,47.51,521.35,2388.13,8.4707,393,38.77,23.2598
1624,88,642.93,1588.92,1406.65,552.12,2388.11,47.55,520.66,2388.17,8.4369,393,38.74,23.1837
1625,87,642.38,1593.42,1411.87,552.76,2388.11,47.69,520.88,2388.16,8.4405,394,38.9,23.3115
1626,86,643.04,1587.91,1403.83,552.8,2388.15,47.82,521.23,2388.12,8.4649,394,38.76,23.1794
1627,85,642.33,1592.63,1411.72,553.15,2388.17,47.63,521.07,2388.18,8.4577,393,38.75,23.3226
1628,84,642.65,1589.96,1410.23,553.33,2388.18,47.79,520.67,2388.13,8.4809,393,38.84,23.2782
1629,83,643.01,1598.92,1416.24,553.62,2388.18,47.79,521.34,2388.14,8.4402,394,38.8,23.3558
1630,82,642.59,1594.01,1409.46,554.02,2388.15,47.55,520.95,2388.13,8.4435,394,38.88,23.2831
1631,81,643.06,1590.31,1411.5,553.19,2388.19,47.57,520.99,2388.14,8.4424,396,38.79,23.2364
1632,80,643.09,1598.38,1409.85,553.02,2388.14,47.59,520.88,2388.12,8.4531,394,38.68,23.2438
1633,79,642.27,1588.04,1411.2,553.02,2388.16,47.76,521.64,2388.12,8.4414,393,38.83,23.2851
1634,78,642.79,1590.22,1412.92,553.02,2388.17,47.55,521.07,2388.15,8.4352,395,38.8,23.255
1635,77,642.76,1589.54,1412.9,552.98,2388.13,47.7,521.71,2388.2,8.4614,393,38.81,23.3273
1636,76,643.27,1589.11,1406.93,553.28,2388.17,47.55,520.98,2388.15,8.4337,394,38.79,23.2157
1637,75,642.42,1588.17,1413.75,553.24,2388.14,47.46,520.76,2388.14,8.4466,392,38.77,23.1397
1638,74,642.69,1587.95,1411.06,553.56,2388.14,47.57,521.17,2388.18,8.4635,394,38.71,23.2871
1639,73,642.83,1594.18,1415.54,552.76,2388.17,47.68,520.77,2388.14,8.4474,394,38.82,23.2749
1640,72,643.06,1593.86,1412.77,553.07,2388.16,47.63,520.97,2388.15,8.4951,393,38.78,23.2729
1641,71,643.18,1590.44,1408.65,552.55,2388.19,47.64,520.42,2388.2,8.4716,392,38.91,23.2468
1642,70,643.09,1586.49,1421.86,552.97,2388.16,47.6,520.82,2388.16,8.4046,394,38.69,23.1655
1643,69,642.44,1598.81,1418.07,553.13,2388.18,47.59,520.64,2388.12,8.4418,394,38.75,23.1679
1644,68,643.11,1587.82,1406.94,552.63,2388.19,47.77,521.23,2388.18,8.4673,395,38.67,23.3798
1645,67,642.79,1588.27,1406.93,553.02,2388.17,47.66,521.38,2388.23,8.4569,394,38.88,23.1633
1646,66,642.91,1600.62,1416.91,553.39,2388.2,47.68,520.84,2388.15,8.4446,394,38.68,23.3456
1647,65,643.53,1586.9,1419.03,553.03,2388.18,47.71,521.2,2388.17,8.4391,394,38.51,23.2252
1648,64,643.57,1595.92,1411.11,552.65,2388.21,47.73,521.32,2388.18,8.5072,395,38.8,23.2706
1649,63,643.13,1594.3,1419.41,553.26,2388.17,47.69,521.01,2388.18,8.4485,394,38.7,23.1939
1650,62,643.0,1592.27,1413.99,552.58,2388.15,47.78,520.49,2388.15,8.4636,395,38.85,23.2395
1651,61,642.89,1588.92,1414.77,552.99,2388.18,47.53,521.37,2388.19,8.4684,393,38.75,23.2629
1652,60,643.04,1597.06,1419.66,553.63,2388.21,47.76,520.86,2388.25,8.4657,395,38.75,23.175
1653,59,642.85,1597.12,1418.09,553.31,2388.14,47.61,521.1,2388.15,8.4363,392,38.81,23.1856
1654,58,643.22,1587.73,1406.32,553.52,2388.21,47.68,520.76,2388.15,8.4885,393,38.64,23.2741
1655,57,642.64,1600.04,1412.99,553.25,2388.16,47.59,521.29,2388.16,8.4484,394,38.68,23.2533
1656,56,642.83,1598.04,1413.58,553.19,2388.2,47.68,520.82,2388.2,8.4551,394,38.72,23.2282
1657,55,643.23,1593.41,1414.15,552.31,2388.21,47.74,520.93,2388.15,8.4869,395,38.72,23.3197
1658,54,642.87,1597.95,1410.75,553.64,2388.13,47.69,521.23,2388.19,8.4842,393,38.81,23.1988
1659,53,643.24,1589.77,1414.96,552.79,2388.17,47.89,521.04,2388.2,8.4235,392,38.85,23.2346
1660,52,642.84,1591.64,1414.43,552.63,2388.17,47.59,520.74,2388.17,8.4813,393,38.71,23.2744
1661,51,642.14,1596.36,1416.42,552.48,2388.16,47.82,520.74,2388.16,8.4653,394,38.73,23.1774
1662,50,642.33,1595.63,1418.78,552.73,2388.16,47.72,520.59,2388.21,8.4532,394,38.75,23.1026
1663,49,643.11,1591.38,1421.21,552.64,2388.16,47.75,520.9,2388.16,8.4646,395,38.61,23.2687
1664,48,643.14,1582.62,1413.48,552.27,2388.19,47.73,520.79,2388.19,8.4561,394,38.85,23.2557
1665,47,642.76,1593.92,1411.03,553.11,2388.21,47.78,521.19,2388.21,8.4837,395,38.76,23.2683
1666,46,642.77,1590.73,1418.79,552.61,2388.21,47.78,520.55,2388.14,8.4563,393,38.87,23.1385
1667,45,642.64,1592.44,1411.94,552.67,2388.22,47.88,521.02,2388.14,8.4851,393,38.7,23.1946
1668,44,642.74,1587.49,1412.29,551.51,2388.15,47.95,520.45,2388.23,8.4651,394,38.67,23.2594
1669,43,642.93,1598.31,1420.11,552.75,2388.18,47.62,520.88,2388.2,8.4555,395,38.8,23.2435
1670,42,642.82,1590.36,1422.19,552.51,2388.2,47.79,520.9,2388.16,8.4884,394,38.74,23.326
1671,41,642.9,1596.7,1412.1,553.13,2388.26,47.71,520.22,2388.22,8.4915,394,38.85,23.2791
1672,40,643.46,1591.04,1413.93,552.65,2388.19,47.76,520.72,2388.15,8.4961,393,38.54,23.1857
1673,39,643.11,1592.76,1416.05,552.42,2388.19,47.75,520.7,2388.2,8.4449,394,38.53,23.1757
1674,38,642.9,1603.1,1415.73,552.87,2388.2,47.57,520.56,2388.16,8.4972,395,38.64,23.1456
1675,37,643.23,1598.37,1410.46,552.1,2388.15,47.87,520.39,2388.21,8.4561,394,38.76,23.0927
1676,36,642.96,1594.91,1415.05,552.75,2388.21,47.76,520.3,2388.16,8.4579,393,38.58,23.298
1677,35,642.73,1598.5,1415.49,552.46,2388.16,47.8,521.21,2388.19,8.4614,395,38.66,23.2599
1678,34,643.29,1593.72,1419.78,552.68,2388.17,47.82,520.71,2388.17,8.4766,395,38.69,23.135
1679,33,643.14,1587.02,1419.89,553.04,2388.21,47.9,520.5,2388.18,8.4805,392,38.45,23.1152
1680,32,642.94,1585.36,1411.35,552.14,2388.24,47.86,520.68,2388.2,8.4706,394,38.53,23.2868
1681,31,643.38,1594.55,1416.89,552.61,2388.25,47.85,520.71,2388.21,8.4645,395,38.68,23.2805
1682,30,643.44,1600.04,1417.09,552.39,2388.18,47.88,520.37,2388.21,8.4552,395,38.7,23.1677
1683,29,642.98,1594.55,1417.41,551.98,2388.18,47.95,520.03,2388.23,8.4754,394,38.56,23.2132
1684,28,643.37,1593.25,1422.75,551.66,2388.23,48.04,520.64,2388.19,8.499,394,38.77,23.0424
1685,27,643.81,1597.23,1419.95,552.67,2388.21,47.9,520.15,2388.22,8.5019,394,38.74,23.1333
1686,26,643.09,1595.92,1419.7,552.14,2388.26,48.0,520.3,2388.22,8.4902,396,38.39,23.1939
1687,25,643.84,1593.45,1424.0,552.24,2388.2,47.99,520.68,2388.16,8.4807,396,38.58,23.1815
1688,24,643.15,1599.98,1420.01,552.09,2388.26,47.9,520.26,2388.19,8.5094,395,38.51,23.1537
1689,23,643.53,1595.04,1416.81,551.79,2388.19,48.0,520.69,2388.2,8.4798,395,38.63,23.2215
1690,22,643.34,1598.47,1427.67,552.07,2388.22,47.82,520.42,2388.23,8.5034,394,38.66,23.1302
1691,21,642.87,1593.87,1418.54,551.82,2388.27,47.92,520.58,2388.24,8.5285,396,38.49,23.1441
1692,20,642.95,1600.15,1414.35,551.52,2388.22,47.9,520.36,2388.27,8.5072,394,38.62,23.0666
1693,19,643.48,1593.32,1425.47,552.09,2388.25,48.09,520.13,2388.24,8.5098,395,38.58,23.0893
1694,18,643.55,1596.48,1419.07,551.32,2388.23,47.84,520.05,2388.24,8.4999,392,38.79,23.1495
1695,17,643.8,1597.34,1416.24,551.83,2388.21,48.08,520.16,2388.28,8.5008,395,38.42,23.176
1696,16,644.02,1597.2,1425.3,552.06,2388.27,48.0,520.47,2388.26,8.4511,395,38.54,23.0978
1697,15,643.22,1596.04,1422.09,551.91,2388.28,47.89,519.78,2388.18,8.4724,395,38.55,23.1053
1698,14,643.55,1601.77,1418.93,551.63,2388.24,47.98,519.88,2388.22,8.5125,396,38.68,23.0878
1699,13,643.38,1598.04,1424.6,551.17,2388.25,48.14,520.01,2388.28,8.5639,396,38.47,23.1214
1700,12,643.68,1597.92,1429.13,551.7,2388.2,47.98,519.97,2388.18,8.5054,396,38.43,23.1086
1701,11,642.78,1597.03,1424.37,551.96,2388.23,48.13,520.39,2388.27,8.5068,397,38.4,23.1321
1702,10,643.53,1593.54,1419.01,551.5,2388.23,48.07,520.25,2388.26,8.4966,395,38.61,23.0681
1703,9,643.46,1595.97,1422.62,551.19,2388.21,48.01,519.45,2388.18,8.5023,395,38.58,23.0706
1704,8,643.23,1601.14,1427.03,551.86,2388.29,48.17,519.92,2388.29,8.5348,395,38.48,23.0716
1705,7,643.44,1610.35,1426.08,551.38,2388.24,48.13,519.85,2388.26,8.522,395,38.29,23.0465
1706,6,643.95,1603.96,1422.82,551.29,2388.3,48.02,519.92,2388.29,8.5229,394,38.47,23.1225
1707,5,643.6,1599.71,1427.14,551.32,2388.32,47.98,519.47,2388.3,8.4846,395,38.46,23.1502
1708,4,643.49,1605.73,1421.14,551.4,2388.31,48.23,520.01,2388.23,8.5184,396,38.51,22.983
1709,3,643.32,1601.4,1429.5,551.1,2388.27,48.37,519.62,2388.27,8.4701,396,38.42,23.1565
1710,2,643.43,1605.59,1421.3,551.73,2388.31,48.13,519.87,2388.29,8.4914,395,38.59,23.0631
1711,1,643.87,1605.12,1428.29,550.49,2388.29,48.09,519.31,2388.28,8.518,396,38.3,23.0808
1712,0,643.87,1602.84,1432.31,551.08,2388.27,48.24,519.57,2388.26,8.5509,394,38.24,23.051
1914,125,641.92,1587.93,1392.2,554.37,2388.0,47.05,522.54,2388.01,8.4039,391,39.04,23.5309
1915,125,642.22,1586.81,1392.03,554.76,2388.06,47.2,523.04,2388.04,8.3868,390,39.05,23.3106
1916,125,642.16,1581.06,1395.51,554.42,2388.01,47.19,522.22,2387.97,8.4422,392,39.01,23.5053
1917,125,642.14,1590.17,1388.15,554.19,2387.99,47.11,522.51,2388.03,8.3928,391,38.83,23.3314
1918,125,642.13,1581.09,1396.37,554.26,2387.96,47.2,522.29,2388.01,8.3879,392,39.06,23.4651
1919,125,641.99,1585.13,1394.91,554.48,2388.02,47.03,522.36,2388.02,8.383,390,39.08,23.3655
1920,125,642.44,1582.96,1394.26,555.06,2388.01,47.22,522.87,2388.03,8.3977,391,38.99,23.4053
1921,125,641.61,1584.53,1392.39,554.28,2388.03,47.24,522.29,2388.0,8.3813,391,39.18,23.4135
1922,125,641.78,1580.52,1401.27,554.27,2388.03,47.04,522.29,2387.97,8.3836,392,38.98,23.4868
1923,125,642.02,1581.9,1398.55,555.23,2388.0,47.12,522.25,2388.0,8.3644,392,38.93,23.3787
1924,125,642.48,1585.62,1400.69,553.8,2388.02,47.16,522.62,2387.97,8.3862,391,38.86,23.4401
1925,125,642.2,1591.59,1396.26,554.67,2388.0,46.99,522.68,2387.99,8.3809,392,39.03,23.4179
1926,125,641.98,1578.1,1395.18,554.77,2387.99,47.18,522.03,2387.99,8.3773,391,38.89,23.3528
1927,125,642.03,1583.94,1400.37,553.95,2388.06,47.09,522.28,2388.02,8.3997,393,39.12,23.3564
1928,125,642.3,1586.21,1393.99,554.72,2388.02,47.18,522.69,2388.02,8.4346,393,39.0,23.4487
1929,125,641.87,1589.94,1397.33,554.65,2388.01,47.06,522.35,2388.02,8.3577,392,39.0,23.4001
1930,125,641.79,1585.44,1400.99,554.62,2387.99,47.03,522.61,2388.03,8.4136,392,39.05,23.403
1931,125,641.87,1580.13,1395.47,554.67,2388.03,47.32,522.07,2388.0,8.3947,392,39.12,23.3682
1932,125,642.29,1589.25,1396.14,554.48,2387.99,47.11,522.27,2388.01,8.3858,391,39.14,23.4496
1933,125,641.88,1583.88,1397.1,554.12,2387.98,47.23,522.42,2388.05,8.3966,392,39.04,23.4002
1934,125,642.14,1580.79,1399.2,554.68,2388.01,47.17,522.0,2388.0,8.4168,391,38.88,23.4053
1935,125,642.28,1588.92,1397.3,554.96,2387.99,47.14,522.04,2388.01,8.3823,393,39.07,23.5493
1936,125,642.36,1589.48,1395.85,554.58,2388.0,47.18,522.35,2387.98,8.4085,392,38.87,23.4251
1937,125,642.0,1583.85,1393.75,554.92,2388.06,47.33,522.84,2387.99,8.3758,391,39.11,23.4183
1938,125,642.76,1581.08,1406.96,555.22,2388.01,47.13,522.04,2387.96,8.4141,391,39.05,23.4275
1939,125,642.48,1590.13,1392.6,555.23,2388.06,47.12,522.41,2388.03,8.4004,392,39.05,23.4433
1940,125,642.17,1582.59,1396.89,553.83,2388.05,47.19,522.54,2387.99,8.4325,392,38.84,23.3362
1941,125,641.74,1585.77,1392.56,555.02,2387.98,47.13,522.41,2387.99,8.3943,391,39.43,23.4076
1942,125,641.47,1583.06,1396.87,555.42,2388.03,47.01,521.41,2388.03,8.3982,391,39.19,23.4753
1943,125,641.9,1587.36,1402.48,554.46,2388.02,47.31,522.49,2388.0,8.3667,390,38.96,23.4173
1944,125,642.2,1586.25,1398.36,554.78,2388.0,47.07,522.6,2387.98,8.4126,391,38.94,23.53
1945,125,641.84,1586.55,1392.5,554.77,2388.04,47.09,522.38,2388.04,8.3925,391,38.87,23.3929
1946,125,642.55,1582.9,1396.54,554.63,2387.97,47.16,522.44,2388.06,8.3916,392,39.13,23.4095
1947,125,642.52,1582.14,1397.64,554.21,2388.02,47.3,522.3,2388.06,8.4214,390,39.0,23.5233
1948,125,642.0,1585.28,1399.6,554.18,2388.0,47.01,522.79,2388.03,8.404,392,38.89,23.4587
1949,125,641.46,1580.69,1396.29,554.43,2388.01,47.12,521.94,2388.01,8.3686,392,38.99,23.4019
1950,125,641.97,1575.6,1398.36,554.34,2388.0,47.19,522.0,2387.99,8.3769,392,39.08,23.4904
1951,125,642.2,1589.84,1397.83,555.12,2388.01,47.29,522.7,2388.02,8.4265,390,39.13,23.3119
1952,125,642.78,1586.67,1390.9,554.76,2388.04,47.09,522.74,2388.01,8.434,390,39.11,23.4868
1953,125,642.12,1583.04,1393.76,554.21,2388.07,47.15,522.46,2388.02,8.4005,391,39.24,23.4566
1954,125,641.64,1589.84,1393.32,554.62,2387.99,47.2,522.13,2388.04,8.3954,392,39.02,23.4643
1955,125,641.48,1579.48,1398.05,554.76,2388.04,47.11,522.59,2387.99,8.4149,392,39.09,23.4383
1956,125,642.67,1571.04,1401.83,554.0,2388.06,47.1,522.41,2388.0,8.3808,390,39.08,23.4559
1957,125,642.14,1580.44,1399.42,554.22,2388.01,47.16,522.19,2388.02,8.4043,391,39.08,23.4762
1958,125,642.03,1580.26,1398.18,554.73,2388.01,47.21,522.61,2388.06,8.4005,391,38.87,23.5226
1959,125,642.03,1587.64,1398.27,555.18,2387.99,47.15,522.55,2388.0,8.4128,393,38.9,23.4497
1960,125,642.08,1577.61,1393.94,554.03,2388.06,47.08,522.52,2388.0,8.3769,390,38.87,23.4684
1961,125,641.97,1583.8,1402.0,554.64,2387.98,47.05,522.61,2387.99,8.3727,391,39.04,23.3365
1962,125,642.24,1580.77,1398.39,554.84,2387.97,47.22,522.46,2387.98,8.4097,392,38.99,23.4203
1963,125,641.87,1585.37,1400.5,554.45,2388.0,46.96,521.95,2388.04,8.4012,392,39.08,23.284
1964,125,642.2,1581.49,1395.73,554.68,2388.05,47.21,521.94,2387.99,8.3834,392,38.95,23.4952
1965,125,641.76,1588.52,1401.12,554.26,2387.99,47.19,522.62,2388.04,8.4213,392,38.97,23.3672
1966,125,641.76,1590.49,1397.38,554.83,2387.99,47.37,521.88,2388.01,8.4318,391,39.04,23.4324
1967,125,641.84,1584.1,1402.76,554.51,2388.02,47.08,522.11,2388.04,8.4085,393,39.02,23.5017
1968,125,641.76,1577.97,1398.77,553.48,2388.0,47.19,522.52,2388.07,8.4008,390,39.15,23.411
1969,125,642.21,1586.45,1396.86,555.25,2388.01,47.34,522.74,2388.02,8.3742,391,39.01,23.4886
1970,125,641.82,1586.01,1400.77,554.07,2388.01,47.37,522.27,2387.97,8.3279,391,38.99,23.5059
1971,125,642.15,1582.48,1398.42,554.3,2387.96,47.11,521.66,2388.05,8.4264,391,39.06,23.4623
1972,125,642.3,1592.5,1401.01,553.85,2388.02,47.16,522.12,2388.04,8.4061,392,38.96,23.3828
1973,125,642.04,1584.0,1402.06,554.41,2388.09,47.16,521.63,2387.94,8.3983,391,39.11,23.3808
1974,125,642.28,1581.82,1393.03,554.39,2388.03,47.17,522.37,2387.98,8.3614,391,38.96,23.4592
1975,125,642.52,1584.46,1400.1,554.15,2388.05,47.1,522.29,2388.03,8.4175,392,39.14,23.3774
1976,125,641.54,1584.86,1397.06,554.3,2388.01,47.18,521.81,2388.0,8.3939,393,38.96,23.347
1977,125,642.17,1588.3,1398.52,554.38,2388.06,47.14,522.32,2387.99,8.3747,389,39.0,23.3957
1978,125,642.34,1583.08,1400.65,554.44,2388.05,47.22,522.2,2388.09,8.4073,390,39.11,23.4998
1979,125,641.95,1588.58,1399.24,554.45,2388.03,47.35,522.43,2388.01,8.3896,391,39.08,23.2852
1980,125,642.04,1589.24,1407.4,555.01,2388.03,47.15,522.4,2388.03,8.3763,390,39.15,23.3072
1981,125,641.8,1589.24,1404.08,554.6,2388.04,47.15,522.45,2388.04,8.4128,393,39.07,23.4226
